Date,Total Assets,"Cash, Cash Equivalents & STI",Cash & Cash Equivalents,ST Investments,Accounts & Notes Receiv,"Accounts Receivable, Net","Notes Receivable, Net",Inventories,Raw Materials,Work In Process,Finished Goods,Other Inventory,Other ST Assets,Derivative & Hedging Assets,Assets Held-for-Sale,Deferred Tax Assets,Misc ST Assets,Total Current Assets,"Property, Plant & Equip, Net","Property, Plant & Equip",Accumulated Depreciation,LT Investments & Receivables,LT Investments,Other LT Assets,Total Intangible Assets,Goodwill,Other Intangible Assets,Misc LT Assets,Total Noncurrent Assets,Liabilities & Shareholders' Equity,Payables & Accruals,Accounts Payable,Accrued Taxes,Interest & Dividends Payable,Other Payables & Accruals,ST Debt,ST Borrowings,ST Lease Liabilities,ST Finance Leases,ST Operating Leases,Current Portion of LT Debt,Other ST Liabilities,Deferred Revenue,Derivatives & Hedging,Misc ST Liabilities,Total Current Liabilities,LT Debt,LT Borrowings,LT Lease Liabilities,LT Finance Leases,LT Operating Leases,Other LT Liabilities,Accrued Liabilities,Pension Liabilities,Deferred Tax Liabilities,Misc LT Liabilities,Total Noncurrent Liabilities,Total Liabilities,Preferred Equity and Hybrid Capital,Share Capital & APIC,Common Stock,Additional Paid in Capital,Treasury Stock,Retained Earnings,Other Equity,Equity Before Minority Interest,Minority/Non Controlling Interest,Total Equity,Total Liabilities & Equity,Source: Bloomberg
03/31/1990,5745.799805,33.0,33.0,0.0,1218.400024,,,755.599976,,,,,137.600006,,,,,2144.600098,3003.199951,5513.899902,-2510.699951,,,598.0,,,,598.0,3601.199951,,832.299988,832.299988,,,,540.299988,,,,,,85.300049,,,85.300049,1457.900024,1087.099976,,,,,803.5,,,,803.5,1890.599976,3348.5,0.0,468.799988,,,-1090.5,,2952.800049,2331.100037,66.199997,2397.300034,5745.800034,
06/30/1990,5837.600098,47.400002,47.400002,0.0,1250.900024,,,769.099976,,,,,146.300003,,,,,2213.699951,3018.899902,5596.100098,-2577.199951,,,605.0,,,,605.0,3623.899902,,888.099976,888.099976,,,,691.900024,,,,,,32.099976,,,32.099976,1612.099976,920.0,,,,,828.900024,,,,828.900024,1748.900024,3361.0,0.0,468.600006,,,-1124.300049,,3070.700073,2415.000031,61.599998,2476.600029,5837.600029,
09/30/1990,6028.200195,4.0,4.0,0.0,1178.599976,,,871.5,,,,,157.300003,,,,,2211.399902,3163.800049,5830.899902,-2667.100098,,,653.0,,,,653.0,3816.800049,,911.400024,911.400024,,,,667.599976,,,,,,23.900024,,,23.900024,1602.900024,1070.099976,,,,,828.400024,,,,828.400024,1898.5,3501.400024,0.0,468.700012,,,-1183.5,,3174.599976,2459.799988,67.0,2526.799988,6028.200012,
12/31/1990,6108.200195,59.299999,59.299999,0.0,971.200012,,,945.099976,,,,,241.300003,,,,,2216.899902,3255.100098,5995.0,-2739.899902,60.299999,,575.900024,,,,575.900024,3891.300121,,537.799988,537.799988,,,,431.799988,,,,,,500.900024,,,500.900024,1470.5,1186.199951,,,,,835.599976,,,,835.599976,2021.799927,3492.299927,0.0,468.700012,,,-118.300003,,2196.100052,2546.500061,69.400002,2615.900063,6108.19999,
03/31/1991,6028.600098,63.099998,63.099998,0.0,1061.699951,,,913.599976,,,,,150.100006,,,,,2188.5,3183.600098,6008.799805,-2825.199951,,,656.5,,,,656.5,3840.100098,,871.900024,871.900024,,,,596.0,,,,,,10.400024,,,10.400024,1478.300049,1139.5,,,,,805.099976,,,,805.099976,1944.599976,3422.900024,0.0,470.700012,,,-1184.199951,,3246.300049,2532.80011,72.900002,2605.700111,6028.600136,
06/30/1991,5969.700195,61.0,61.0,0.0,1161.800049,,,833.099976,,,,,127.900002,,,,,2183.800049,3105.300049,5966.600098,-2861.300049,,,680.599976,,,,680.599976,3785.900024,,837.5,837.5,,,,450.100006,,,,,,8.399994,,,8.399994,1296.0,1266.699951,,,,,801.299988,,,,801.299988,2067.999939,3363.999939,0.0,471.100006,,,-1181.0,,3249.100098,2539.200104,66.5,2605.700104,5969.700043,
09/30/1991,5984.200195,55.5,55.5,0.0,1110.400024,,,828.099976,,,,,154.199997,,,,,2148.199951,3132.699951,6067.100098,-2934.399902,,,703.299988,,,,703.299988,3835.999939,,842.700012,842.700012,,,,341.899994,,,,,,8.499969,,,8.499969,1193.099976,1286.099976,,,,,821.700012,,,,821.700012,2107.799988,3300.899963,0.0,471.5,,,-1184.5,,3326.199951,2613.199951,70.099998,2683.29995,5984.199913,
12/31/1991,6056.200195,37.599998,37.599998,0.0,937.5,,,875.299988,,,,,322.899994,,,,,2173.300049,3183.199951,6212.399902,-3029.199951,,,699.700012,,,,699.700012,3882.899963,,520.400024,520.400024,,,,410.399994,,,,,,409.699982,,,409.699982,1340.5,1163.199951,,,,,822.5,,,,822.5,1985.699951,3326.199951,0.0,471.600006,,,-1186.0,,3368.899902,2654.499908,75.5,2729.999908,6056.199859,
03/31/1992,5994.799805,72.099998,72.099998,0.0,1148.099976,,,830.5,,,,,153.399994,,,,,2204.100098,3091.399902,6142.100098,-3050.699951,,,699.299988,,,,699.299988,3790.69989,,840.700012,840.700012,,,,486.299988,,,,,,40.900024,,,40.900024,1367.900024,1096.0,,,,,825.400024,,,,825.400024,1921.400024,3289.300049,0.0,473.700012,,,-1195.199951,,3351.300049,2629.80011,75.699997,2705.500107,5994.800156,
06/30/1992,6084.299805,85.599998,85.599998,0.0,1172.599976,,,831.799988,,,,,152.100006,,,,,2242.100098,3111.5,6261.299805,-3149.800049,,,730.700012,,,,730.700012,3842.200012,,899.5,899.5,,,,374.399994,,,,,,41.600006,,,41.600006,1315.5,1103.5,,,,,841.299988,,,,841.299988,1944.799988,3260.299988,0.0,474.799988,,,-1198.5,,3472.600098,2748.900085,75.099998,2824.000084,6084.300072,
09/30/1992,6039.0,80.699997,80.699997,0.0,1151.199951,,,822.599976,,,,,155.0,,,,,2209.5,3070.300049,6296.100098,-3225.800049,,,759.200012,,,,759.200012,3829.500061,,887.099976,887.099976,,,,451.600006,,,,,,28.100067,,,28.100067,1366.800049,1011.200012,,,,,819.799988,,,,819.799988,1831.0,3197.800049,0.0,475.399994,,,-1200.599976,,3498.599976,2773.399994,67.800003,2841.199997,6039.000046,
12/31/1992,5661.700195,61.400002,61.400002,0.0,919.700012,,,742.299988,,,,,227.399994,,,,,1950.800049,2971.5,6157.700195,-3186.199951,,,739.400024,,,,739.400024,3710.900024,,447.0,447.0,,,,434.399994,,,,,,371.600006,,,371.600006,1253.0,872.299988,,,,,777.200012,,,,777.200012,1649.5,2902.5,0.0,474.899994,,,-1200.300049,,3424.300049,2698.899994,60.299999,2759.199993,5661.699993,
03/31/1993,5995.0,89.400002,89.400002,0.0,1205.099976,,,748.700012,,,,,200.0,,,,,2243.199951,2952.0,6186.200195,-3234.199951,,,799.799988,,,,799.799988,3751.799988,,888.599976,888.599976,,,,522.200012,,,,,,52.299988,,,52.299988,1463.099976,865.400024,,,,,1128.400024,,,,1128.400024,1993.800048,3456.900024,0.0,478.399994,,,-1197.5,,3208.300049,2489.200043,48.900002,2538.100045,5995.000069,
06/30/1993,5842.299805,53.900002,53.900002,0.0,1139.599976,,,741.599976,,,,,199.899994,,,,,2135.0,2908.0,6187.100098,-3279.100098,,,799.299988,,,,799.299988,3707.299988,,862.900024,862.900024,,,,522.099976,,,,,,33.800049,,,33.800049,1418.800049,790.799988,,,,,1057.400024,,,,1057.400024,1848.200012,3267.000061,0.0,480.5,,,-1210.800049,,3258.400024,2528.099976,47.200001,2575.299976,5842.300037,
09/30/1993,5768.0,61.299999,61.299999,0.0,1106.599976,,,735.900024,,,,,208.899994,,,,,2112.699951,2839.199951,6108.299805,-3269.100098,,,816.099976,,,,816.099976,3655.299927,,904.900024,904.900024,,,,433.899994,,,,,,4.500031,,,4.500031,1343.300049,781.400024,,,,,1126.0,,,,1126.0,1907.400024,3250.700073,0.0,480.899994,,,-1215.400024,,3200.0,2465.499969,51.799999,2517.299969,5768.000042,
12/31/1993,5651.5,111.900002,111.900002,0.0,909.799988,,,683.299988,,,,,320.899994,,,,,2025.900024,2787.300049,6041.899902,-3254.600098,,,838.299988,,,,838.299988,3625.600037,,436.0,436.0,,,,355.100006,,,,,,489.899994,,,489.899994,1281.0,774.0,,,,,1066.5,,,,1066.5,1840.5,3121.5,0.0,539.599976,,,-1224.699951,,3163.199951,2478.099976,51.900002,2529.999978,5651.499978,
03/31/1994,5902.200195,116.900002,116.900002,0.0,1221.400024,,,718.200012,,,,,227.100006,,,,,2283.600098,2762.699951,6084.600098,-3321.899902,,,855.900024,,,,855.900024,3618.599975,,929.900024,929.900024,,,,475.799988,,,,,,54.600037,,,54.600037,1460.300049,771.900024,,,,,1098.5,,,,1098.5,1870.400024,3330.700073,0.0,550.400024,,,-1284.099976,,3249.099976,2515.400024,56.099998,2571.500022,5902.200095,
06/30/1994,5824.899902,52.5,52.5,0.0,1294.800049,,,694.5,,,,,221.100006,,,,,2262.899902,2735.699951,6076.399902,-3340.699951,0.0,,826.299988,,,,826.299988,3561.999939,,989.400024,989.400024,,,,381.0,,,,,,0.099976,,,0.099976,1370.5,769.099976,,,,,1052.400024,,,,1052.400024,1821.5,3192.0,0.0,551.099976,,,-1282.599976,,3304.799927,2573.299927,59.599998,2632.899925,5824.899925,
09/30/1994,5866.5,165.699997,165.699997,0.0,1229.199951,,,686.799988,,,,,233.899994,,,,,2315.600098,2718.899902,6128.399902,-3409.5,0.0,,832.0,,,,832.0,3550.899902,,971.5,971.5,,,,300.700012,,,,,,17.499939,,,17.499939,1289.699951,767.700012,,,,,1054.099976,,,,1054.099976,1821.799988,3111.499939,0.0,550.200012,,,-1279.900024,,3419.599975,2689.899963,65.099998,2754.999961,5866.4999,
12/31/1994,5893.899902,62.099998,62.099998,0.0,1228.900024,,,686.400024,,,,,190.800003,,,,,2168.199951,2742.300049,6162.700195,-3420.399902,0.0,,983.400024,,,,983.400024,3725.700073,,517.799988,517.799988,,,,370.700012,,,,,,536.0,,,536.0,1424.5,773.400024,,,,,1068.699951,,,,1068.699951,1842.099975,3266.599975,0.0,551.799988,,,-1488.599976,,3493.799927,2556.999939,70.300003,2627.299942,5893.899917,
03/31/1995,6148.0,73.199997,73.199997,0.0,1413.0,,,767.299988,,,,,197.600006,,,,,2451.100098,2758.899902,6010.5,-3251.600098,192.199997,,745.799988,,,,745.799988,3696.899887,,1059.400024,1059.400024,,,,382.200012,,,,,,134.700013,,,134.700013,1576.300049,655.5,,,,,1095.300049,,,,1095.300049,1750.800049,3327.100098,0.0,553.5,,,-1515.900024,,3709.000122,2746.600098,74.300003,2820.900101,6148.000199,
06/30/1995,6177.399902,100.599998,100.599998,0.0,1402.599976,,,760.400024,,,,,188.399994,,,,,2452.0,2757.800049,6348.100098,-3590.300049,200.100006,,767.5,,,,767.5,3725.400055,,1077.900024,1077.900024,,,,370.0,,,,,,64.799927,,,64.799927,1512.699951,652.799988,,,,,1119.400024,,,,1119.400024,1772.200012,3284.899963,0.0,554.299988,,,-1605.0,,3866.399902,2815.69989,76.800003,2892.499893,6177.399856,
09/30/1995,6188.399902,118.300003,118.300003,0.0,1319.800049,,,759.900024,,,,,176.600006,,,,,2374.600098,2763.600098,6392.600098,-3629.0,201.600006,,848.599976,,,,848.599976,3813.80008,,1096.300049,1096.300049,,,,444.600006,,,,,,39.399994,,,39.399994,1580.300049,744.5,,,,,1150.400024,,,,1150.400024,1894.900024,3475.200073,0.0,556.700012,,,-1874.800049,,3959.100098,2641.000061,72.199997,2713.200058,6188.400131,
12/31/1995,6194.299805,105.599998,105.599998,0.0,1245.099976,,,737.5,,,,,187.300003,,,,,2275.5,2834.800049,6464.0,-3629.199951,223.800003,,860.200012,,,,860.200012,3918.800064,,583.400024,583.400024,,,,485.299988,,,,,,560.700012,,,560.700012,1629.400024,735.5,,,,,1192.0,,,,1192.0,1927.5,3556.900024,0.0,565.599976,,,-2059.600098,,4063.200074,2569.199952,68.199997,2637.399949,6194.299973,
03/31/1996,6346.899902,89.0,89.0,0.0,1339.199951,,,779.799988,,,,,193.699997,,,,,2401.699951,2850.0,6533.100098,-3683.100098,219.100006,,876.099976,,,,876.099976,3945.199982,,1066.800049,1066.800049,,,,689.400024,,,,,,97.199951,,,97.199951,1853.400024,712.400024,,,,,1207.800049,,,,1207.800049,1920.200073,3773.600097,0.0,573.0,,,-2250.199951,,4177.0,2499.800049,73.5,2573.300049,6346.900146,
06/30/1996,6501.600098,121.900002,121.900002,0.0,1388.800049,,,746.599976,,,,,195.0,,,,,2452.300049,2863.5,6603.299805,-3739.800049,215.100006,,970.700012,,,,970.700012,4049.300018,,1080.400024,1080.400024,,,,761.200012,,,,,,18.599915,,,18.599915,1860.199951,848.599976,,,,,1237.199951,,,,1237.199951,2085.799927,3945.999878,0.0,575.200012,,,-2410.199951,,4316.0,2481.000061,74.599998,2555.600059,6501.599937,
09/30/1996,6425.700195,104.400002,104.400002,0.0,1278.599976,,,779.099976,,,,,189.899994,,,,,2352.0,2891.600098,6679.899902,-3788.300049,210.100006,,972.0,,,,972.0,4073.700104,,1071.400024,1071.400024,,,,584.700012,,,,,,37.200013,,,37.200013,1693.300049,843.099976,,,,,1252.199951,,,,1252.199951,2095.299927,3788.599976,0.0,576.5,,,-2469.100098,,4455.100098,2562.5,74.599998,2637.099998,6425.699974,
12/31/1996,6441.399902,69.599998,69.599998,0.0,1225.599976,,,796.5,,,,,204.699997,,,,,2296.399902,2913.5,6688.200195,-3774.699951,254.399994,,977.099976,,,,977.099976,4144.99997,,601.900024,601.900024,,,,648.299988,,,,,,518.700012,,,518.700012,1768.900024,833.900024,,,,,1279.800049,,,,1279.800049,2113.700073,3882.600097,0.0,580.900024,,,-2667.199951,,4568.899902,2482.599975,76.199997,2558.799972,6441.400069,
03/31/1997,6553.0,109.5,109.5,0.0,1345.0,,,820.0,,,,,192.0,,,,,2467.0,2871.0,6644.0,-3773.0,230.0,,985.0,,,,985.0,4086.0,,1055.0,1055.0,,,,590.0,,,,,,82.0,,,82.0,1727.0,1008.0,,,,,1288.0,,,,1288.0,2296.0,4023.0,0.0,582.0,,,-2758.100098,,4629.100098,2453.0,77.0,2530.0,6553.0,
06/30/1997,6566.0,105.0,105.0,0.0,1376.0,,,807.0,,,,,192.0,,,,,2480.0,2861.0,6667.0,-3806.0,227.0,,998.0,,,,998.0,4086.0,,1095.0,1095.0,,,,598.0,,,,,,38.0,,,38.0,1731.0,980.0,,,,,1311.0,,,,1311.0,2291.0,4022.0,0.0,583.0,,,-2865.0,,4746.0,2464.0,80.0,2544.0,6566.0,
09/30/1997,6538.0,90.0,90.0,0.0,1301.0,,,819.0,,,,,201.0,,,,,2411.0,2846.0,6716.0,-3870.0,234.0,,1047.0,,,,1047.0,4127.0,,1081.0,1081.0,,,,566.0,,,,,,9.0,,,9.0,1656.0,990.0,,,,,1327.0,,,,1327.0,2317.0,3973.0,0.0,585.0,,,-2957.0,,4855.0,2483.0,82.0,2565.0,6538.0,
12/31/1997,6868.0,129.0,129.0,0.0,1353.0,,,863.0,255.0,,608.0,,239.0,,,,,2584.0,2855.0,6758.0,-3903.0,219.0,,1210.0,,,,1210.0,4284.0,,646.0,646.0,,,,444.0,,,,,,572.0,,,572.0,1662.0,1257.0,,,,,1358.0,,,,1358.0,2615.0,4277.0,0.0,583.0,,,-2990.0,,4916.0,2509.0,82.0,2591.0,6868.0,
03/31/1998,7106.0,141.0,141.0,0.0,1443.0,,,898.0,273.0,,625.0,,247.0,,,,,2729.0,2878.0,6816.0,-3938.0,249.0,,1250.0,,,,1250.0,4377.0,,1212.0,1212.0,,,,522.0,,,,,,84.0,,,84.0,1818.0,1230.0,,,,,1364.0,,,,1364.0,2594.0,4412.0,0.0,587.0,,,-3029.0,,5049.0,2607.0,87.0,2694.0,7106.0,
06/30/1998,7224.0,151.0,151.0,0.0,1509.0,,,902.0,280.0,,622.0,,249.0,,,,,2811.0,2889.0,6902.0,-4013.0,245.0,,1279.0,,,,1279.0,4413.0,,1245.0,1245.0,,,,512.0,,,,,,35.0,,,35.0,1792.0,1223.0,,,,,1420.0,,,,1420.0,2643.0,4435.0,0.0,592.0,,,-3057.0,,5168.0,2703.0,86.0,2789.0,7224.0,
09/30/1998,7133.0,264.0,264.0,0.0,1354.0,,,870.0,265.0,,605.0,,228.0,,,,,2716.0,2806.0,6548.0,-3742.0,241.0,,1370.0,,,,1370.0,4417.0,,1164.0,1164.0,,,,335.0,,,,,,31.0,,,31.0,1530.0,1203.0,,,,,1393.0,,,,1393.0,2596.0,4126.0,0.0,592.0,,,-3060.0,,5389.0,2921.0,86.0,3007.0,7133.0,
12/31/1998,7387.0,128.0,128.0,0.0,1366.0,,,917.0,279.0,,638.0,0.0,249.0,,,,,2660.0,2905.0,6739.0,-3834.0,263.0,,1559.0,724.0,,,835.0,4727.0,,630.0,630.0,,,,637.0,,,,,,645.0,,,645.0,1912.0,1081.0,,,,,1427.0,,,,1427.0,2508.0,4420.0,0.0,589.0,,,-3198.0,,5489.0,2880.0,87.0,2967.0,7387.0,
03/31/1999,7435.0,82.0,82.0,0.0,1438.0,1438.0,,948.0,292.0,,656.0,0.0,257.0,,,,,2725.0,2874.0,6734.0,-3860.0,247.0,,1589.0,586.0,586.0,0.0,1003.0,4710.0,,1202.0,1202.0,,,,777.0,,,,,,66.0,,,66.0,2045.0,1066.0,,,,,1430.0,,,,1430.0,2496.0,4541.0,0.0,590.0,,,-3276.0,5849.0,-366.0,2797.0,97.0,2894.0,7435.0,
06/30/1999,7513.0,96.0,96.0,0.0,1500.0,1500.0,,915.0,279.0,,636.0,0.0,268.0,,,,,2779.0,2876.0,6792.0,-3916.0,262.0,,1596.0,571.0,571.0,0.0,1025.0,4734.0,,1242.0,1242.0,,,,711.0,,,,,,36.0,,,36.0,1989.0,1051.0,,,,,1447.0,,,,1447.0,2498.0,4487.0,0.0,588.0,,,-3271.0,5968.0,-350.0,2935.0,91.0,3026.0,7513.0,
09/30/1999,8750.0,164.0,164.0,0.0,1592.0,1592.0,,1020.0,301.0,,719.0,0.0,365.0,,,,,3141.0,2861.0,6757.0,-3896.0,256.0,,2492.0,911.0,911.0,0.0,1581.0,5609.0,,1379.0,1379.0,,,,872.0,,,,,,40.0,,,40.0,2291.0,1849.0,,,,,1508.0,,,,1508.0,3357.0,5648.0,0.0,589.0,,,-3269.0,6001.0,-320.0,3001.0,101.0,3102.0,8750.0,
12/31/1999,8914.0,158.0,158.0,0.0,1594.0,1594.0,,1016.0,300.0,,716.0,0.0,294.0,,,,,3062.0,2933.0,6859.0,-3926.0,261.0,,2658.0,1662.0,1002.0,660.0,996.0,5852.0,,755.0,755.0,,,,954.0,,,,,,675.0,,,675.0,2384.0,1836.0,,,,,1490.0,,,,1490.0,3326.0,5710.0,0.0,588.0,,,-3268.0,6098.0,-312.0,3106.0,98.0,3204.0,8914.0,
03/31/2000,9072.0,145.0,145.0,0.0,1713.0,1713.0,,1067.0,324.0,0.0,743.0,0.0,252.0,,,,,3177.0,2918.0,6901.0,-3983.0,227.0,,2750.0,1722.0,1066.0,656.0,1028.0,5895.0,,1403.0,1403.0,,,,1105.0,,,,,,0.0,,,0.0,2508.0,1825.0,,,,,1500.0,,,,1500.0,3325.0,5833.0,0.0,591.0,,,-3264.0,6168.0,-358.0,3137.0,102.0,3239.0,9072.0,
06/30/2000,9101.0,144.0,144.0,0.0,1724.0,1724.0,,1067.0,325.0,0.0,742.0,0.0,256.0,,,,,3191.0,2920.0,6962.0,-4042.0,234.0,,2756.0,1696.0,1056.0,640.0,1060.0,5910.0,,1463.0,1463.0,,,,1018.0,,,,,,0.0,,,0.0,2481.0,1824.0,,,,,1465.0,,,,1465.0,3289.0,5770.0,0.0,591.0,,,-3263.0,6303.0,-405.0,3226.0,105.0,3331.0,9101.0,
09/30/2000,9029.0,135.0,135.0,0.0,1652.0,1652.0,,1070.0,315.0,0.0,755.0,0.0,286.0,,,,,3143.0,2900.0,6978.0,-4078.0,232.0,,2754.0,1638.0,1014.0,624.0,1116.0,5886.0,,1436.0,1436.0,,,,1024.0,,,,,,0.0,,,0.0,2460.0,1820.0,,,,,1476.0,,,,1476.0,3296.0,5756.0,0.0,589.0,,,-3383.0,6385.0,-452.0,3139.0,134.0,3273.0,9029.0,
12/31/2000,9125.0,111.0,111.0,0.0,1563.0,1563.0,,1121.0,314.0,0.0,807.0,0.0,298.0,,,,,3093.0,2941.0,7089.0,-4148.0,79.0,,3012.0,1648.0,1032.0,616.0,1364.0,6032.0,,764.0,764.0,,,,1161.0,,,,,,618.0,,,618.0,2543.0,1810.0,,,,,1547.0,,,,1547.0,3357.0,5900.0,0.0,586.0,,,-3508.0,6444.0,-425.0,3097.0,128.0,3225.0,9125.0,
03/31/2001,9061.0,78.0,78.0,0.0,1617.0,1617.0,,1141.0,322.0,0.0,819.0,0.0,325.0,,,,,3161.0,2849.0,7072.0,-4223.0,,,3051.0,1595.0,997.0,598.0,1456.0,5900.0,,1374.0,1374.0,,,,1284.0,,,,,,0.0,,,0.0,2658.0,1701.0,,,,,1557.0,,,,1557.0,3258.0,5916.0,0.0,590.0,,,-3505.0,6430.0,-501.0,3014.0,131.0,3145.0,9061.0,
06/30/2001,8952.0,118.0,118.0,0.0,1637.0,1637.0,,1076.0,310.0,0.0,766.0,0.0,305.0,,,,,3136.0,2801.0,7060.0,-4259.0,,,3015.0,1570.0,983.0,587.0,1445.0,5816.0,,1389.0,1389.0,,,,1116.0,,,,,,0.0,,,0.0,2505.0,1703.0,,,,,1547.0,,,,1547.0,3250.0,5755.0,0.0,593.0,,,-3497.0,6515.0,-549.0,3062.0,135.0,3197.0,8952.0,
09/30/2001,8828.0,159.0,159.0,0.0,1534.0,1534.0,,1006.0,300.0,0.0,706.0,0.0,285.0,,,,,2984.0,2791.0,7143.0,-4352.0,,,3053.0,1574.0,992.0,582.0,1479.0,5844.0,,1368.0,1368.0,,,,944.0,,,,,,0.0,,,0.0,2312.0,1720.0,,,,,1566.0,,,,1566.0,3286.0,5598.0,0.0,593.0,,,-3498.0,6538.0,-530.0,3103.0,127.0,3230.0,8828.0,
12/31/2001,8452.0,108.0,108.0,,1416.0,1416.0,,904.0,166.0,,622.0,116.0,275.0,,,,,2703.0,2752.0,7153.0,-4401.0,305.0,,2692.0,1542.0,972.0,570.0,1150.0,5749.0,,1259.0,1259.0,,,,696.0,,,,,,0.0,,,0.0,1955.0,1699.0,,,,,1596.0,,,,1596.0,3295.0,5250.0,,593.0,,,-3496.0,6551.0,-568.0,3080.0,122.0,3202.0,8452.0,
03/31/2002,8487.0,72.0,72.0,0.0,1533.0,1533.0,,948.0,291.0,0.0,657.0,0.0,288.0,,,,,2841.0,2695.0,7161.0,-4466.0,306.0,,2645.0,1506.0,979.0,527.0,1139.0,5646.0,,1333.0,1333.0,,,,735.0,,,,,,0.0,,,0.0,2068.0,1679.0,,,,,1575.0,,,,1575.0,3254.0,5322.0,0.0,597.0,,,-3489.0,6514.0,-585.0,3037.0,128.0,3165.0,8487.0,
06/30/2002,8753.0,136.0,136.0,0.0,1640.0,1640.0,,962.0,287.0,0.0,675.0,0.0,356.0,,,,,3094.0,2674.0,7284.0,-4610.0,294.0,,2691.0,1549.0,1023.0,526.0,1142.0,5659.0,,1411.0,1411.0,,,,627.0,,,,,,206.0,,,206.0,2244.0,1690.0,,,,,1960.0,,,,1960.0,3650.0,5894.0,0.0,604.0,,,-3479.0,6099.0,-499.0,2725.0,134.0,2859.0,8753.0,
09/30/2002,8582.0,163.0,163.0,0.0,1559.0,1559.0,,957.0,287.0,0.0,670.0,0.0,371.0,,,,,3050.0,2606.0,7232.0,-4626.0,252.0,,2674.0,1532.0,1015.0,517.0,1142.0,5532.0,,1392.0,1392.0,,,,494.0,,,,,,182.0,,,182.0,2068.0,1707.0,,,,,1900.0,,,,1900.0,3607.0,5675.0,0.0,609.0,,,-3472.0,6174.0,-538.0,2773.0,134.0,2907.0,8582.0,
12/31/2002,7863.0,117.0,117.0,,1486.0,1486.0,,942.0,157.0,113.0,548.0,124.0,400.0,,,,,2945.0,2632.0,7270.0,-4638.0,262.0,,2024.0,1561.0,1047.0,514.0,463.0,4918.0,,1378.0,1378.0,,,,352.0,342.0,10.0,10.0,,,190.0,,,190.0,1920.0,1699.0,1699.0,0.0,0.0,,1963.0,,,,1963.0,3662.0,5582.0,,610.0,,,-3471.0,6197.0,-1186.0,2150.0,131.0,2281.0,7863.0,
03/31/2003,8051.0,77.0,77.0,0.0,1649.0,1649.0,,1004.0,283.0,120.0,601.0,0.0,365.0,,,,,3095.0,2611.0,7352.0,-4741.0,278.0,,2067.0,1574.0,1066.0,508.0,493.0,4956.0,,1429.0,1429.0,,,,332.0,,,,,,183.0,,,183.0,1944.0,1699.0,,,,,2027.0,,,,2027.0,3726.0,5670.0,0.0,614.0,,,-3464.0,6203.0,-1117.0,2236.0,145.0,2381.0,8051.0,
06/30/2003,8326.0,153.0,153.0,0.0,1773.0,1773.0,,1004.0,289.0,124.0,591.0,0.0,393.0,,,,,3323.0,2610.0,7482.0,-4872.0,276.0,,2117.0,1610.0,1104.0,506.0,507.0,5003.0,,1527.0,1527.0,,,,234.0,,,,,,289.0,,,289.0,2050.0,1684.0,,,,,2007.0,,,,2007.0,3691.0,5741.0,0.0,615.0,,,-3463.0,6282.0,-1004.0,2430.0,155.0,2585.0,8326.0,
09/30/2003,8304.0,283.0,283.0,0.0,1689.0,1689.0,,990.0,290.0,118.0,582.0,0.0,409.0,,,,,3371.0,2543.0,7479.0,-4936.0,267.0,,2123.0,1607.0,1110.0,497.0,516.0,4933.0,,1560.0,1560.0,,,,385.0,,,,,,291.0,,,291.0,2236.0,1356.0,,,,,2054.0,,,,2054.0,3410.0,5646.0,0.0,617.0,,,-3457.0,6350.0,-988.0,2522.0,136.0,2658.0,8304.0,
12/31/2003,8424.0,499.0,499.0,0.0,1631.0,1631.0,,997.0,285.0,111.0,601.0,0.0,410.0,,,,,3537.0,2566.0,7620.0,-5054.0,111.0,,2210.0,1652.0,1157.0,495.0,558.0,4887.0,,745.0,745.0,,,,327.0,326.0,1.0,1.0,,,1067.0,,,1067.0,2139.0,1339.0,1339.0,0.0,0.0,,1898.0,,,,1898.0,3237.0,5376.0,0.0,642.0,,,-3428.0,6399.0,-702.0,2911.0,137.0,3048.0,8424.0,
03/31/2004,8607.0,466.0,466.0,,1794.0,1794.0,,1044.0,291.0,123.0,630.0,,401.0,,,,,3705.0,2512.0,7620.0,-5108.0,278.0,,2112.0,1674.0,1162.0,512.0,438.0,4902.0,,1594.0,1594.0,,,,347.0,,,,,,300.0,,,300.0,2241.0,1329.0,,,,,1949.0,,,,1949.0,3278.0,5519.0,,671.0,,,-3418.0,6439.0,-720.0,2972.0,116.0,3088.0,8607.0,
06/30/2004,8648.0,583.0,583.0,,1845.0,1845.0,,1025.0,288.0,125.0,612.0,,437.0,,,,,3890.0,2453.0,7602.0,-5149.0,278.0,,2027.0,1651.0,1149.0,502.0,376.0,4758.0,,1641.0,1641.0,,,,348.0,,,,,,396.0,,,396.0,2385.0,1295.0,,,,,1792.0,,,,1792.0,3087.0,5472.0,,683.0,,,-3409.0,6545.0,-759.0,3060.0,116.0,3176.0,8648.0,
09/30/2004,8599.0,561.0,561.0,,1809.0,1809.0,,1010.0,300.0,116.0,594.0,,451.0,,,,,3831.0,2420.0,7668.0,-5248.0,281.0,,2067.0,1660.0,1163.0,497.0,407.0,4768.0,,1663.0,1663.0,,,,165.0,,,,,,394.0,,,394.0,2222.0,1200.0,,,,,1808.0,,,,1808.0,3008.0,5230.0,,689.0,,,-3405.0,6670.0,-699.0,3255.0,114.0,3369.0,8599.0,
12/31/2004,8932.0,709.0,709.0,0.0,1797.0,1797.0,,1076.0,323.0,118.0,635.0,0.0,472.0,,,,,4054.0,2471.0,7855.0,-5384.0,298.0,,2109.0,1713.0,1216.0,497.0,396.0,4878.0,,1651.0,1651.0,,,,166.0,,,,,,404.0,,,404.0,2221.0,1184.0,,,,,1859.0,,,,1859.0,3043.0,5264.0,0.0,733.0,,,-3455.0,6776.0,-482.0,3572.0,96.0,3668.0,8932.0,
03/31/2005,9022.0,677.0,640.0,37.0,1920.0,1920.0,,1130.0,331.0,124.0,675.0,0.0,482.0,,,,,4209.0,2412.0,7812.0,-5400.0,312.0,,2089.0,1680.0,1194.0,486.0,409.0,4813.0,,1751.0,1751.0,,,,161.0,,,,,,409.0,,,409.0,2321.0,1137.0,,,,,1900.0,,,,1900.0,3037.0,5358.0,0.0,810.0,,,-3498.0,6793.0,-556.0,3549.0,115.0,3664.0,9022.0,
06/30/2005,8790.0,470.0,470.0,0.0,1987.0,1987.0,,1105.0,333.0,120.0,652.0,0.0,495.0,,,,,4057.0,2356.0,7749.0,-5393.0,322.0,,2055.0,1654.0,1165.0,489.0,401.0,4733.0,,1590.0,1590.0,,,,164.0,,,,,,479.0,,,479.0,2233.0,1188.0,,,,,1835.0,,,,1835.0,3023.0,5256.0,0.0,823.0,,,-3692.0,6944.0,-662.0,3413.0,121.0,3534.0,8790.0,
09/30/2005,8794.0,489.0,489.0,0.0,1968.0,1968.0,,1116.0,340.0,120.0,656.0,0.0,500.0,,,,,4073.0,2336.0,7809.0,-5473.0,332.0,,2053.0,1650.0,1165.0,485.0,403.0,4721.0,,1789.0,1789.0,,,,72.0,,,,,,474.0,,,474.0,2335.0,1181.0,,,,,1830.0,,,,1830.0,3011.0,5346.0,0.0,830.0,,,-3878.0,7021.0,-655.0,3318.0,130.0,3448.0,8794.0,
12/31/2005,8681.0,466.0,466.0,0.0,1871.0,1871.0,,1119.0,341.0,111.0,667.0,0.0,563.0,,,,,4019.0,2304.0,7802.0,-5498.0,311.0,,2047.0,1654.0,1166.0,488.0,393.0,4662.0,,1776.0,1776.0,,,,101.0,,,,,,472.0,,,472.0,2349.0,1169.0,,,,,2002.0,,,,2002.0,3171.0,5520.0,0.0,836.0,,,-3984.0,7057.0,-856.0,3053.0,108.0,3161.0,8681.0,
03/31/2006,8918.0,416.0,416.0,0.0,2038.0,2038.0,,1195.0,351.0,122.0,722.0,0.0,525.0,,,,,4174.0,2283.0,7865.0,-5582.0,351.0,,2110.0,1665.0,1177.0,488.0,445.0,4744.0,,1778.0,1778.0,,,,86.0,,,,,,480.0,,,480.0,2344.0,1174.0,,,,,2059.0,,,,2059.0,3233.0,5577.0,0.0,846.0,,,-3977.0,7163.0,-818.0,3214.0,127.0,3341.0,8918.0,
06/30/2006,9502.0,419.0,419.0,,2248.0,2248.0,,1273.0,382.0,131.0,760.0,0.0,577.0,,,,,4517.0,2364.0,8058.0,-5694.0,341.0,,2280.0,1797.0,1244.0,553.0,483.0,4985.0,,1939.0,1939.0,,,,139.0,,,,,,560.0,,,560.0,2638.0,1196.0,,,,,2062.0,,,,2062.0,3258.0,5896.0,0.0,864.0,,,-4013.0,7364.0,-738.0,3477.0,129.0,3606.0,9502.0,
09/30/2006,9773.0,316.0,316.0,0.0,2240.0,2240.0,,1377.0,399.0,136.0,842.0,0.0,614.0,,,,,4547.0,2412.0,8173.0,-5761.0,336.0,,2478.0,1947.0,1319.0,628.0,531.0,5226.0,,2075.0,2075.0,,,,118.0,,,,,,561.0,,,561.0,2754.0,1195.0,,,,,2211.0,,,,2211.0,3406.0,6160.0,0.0,876.0,,,-4010.0,7375.0,-758.0,3483.0,130.0,3613.0,9773.0,
12/31/2006,10067.0,443.0,443.0,0.0,2016.0,2016.0,,1203.0,363.0,110.0,730.0,0.0,1193.0,,,,,4855.0,2307.0,7391.0,-5084.0,343.0,,2562.0,1919.0,1337.0,582.0,643.0,5212.0,,1991.0,1991.0,,,,140.0,,,,,,685.0,,,685.0,2816.0,1155.0,,,,,2695.0,,,,2695.0,3850.0,6666.0,0.0,892.0,,,-4101.0,7453.0,-964.0,3280.0,121.0,3401.0,10067.0,
03/31/2007,10345.0,182.0,182.0,,2434.0,2434.0,,1459.0,293.0,139.0,887.0,140.0,654.0,,,,,4729.0,2512.0,8445.0,-5933.0,356.0,,2748.0,2092.0,1447.0,645.0,656.0,5616.0,,2078.0,2078.0,,,,306.0,,,,,,565.0,,,565.0,2949.0,1158.0,,,,,2637.0,,,,2637.0,3795.0,6744.0,,926.0,,,-4127.0,7576.0,-939.0,3436.0,165.0,3601.0,10345.0,
06/30/2007,10684.0,197.0,197.0,0.0,2583.0,2583.0,,1480.0,450.0,142.0,888.0,0.0,691.0,,,,,4951.0,2535.0,8580.0,-6045.0,374.0,,2824.0,2103.0,1466.0,637.0,721.0,5733.0,,2145.0,2145.0,,,,216.0,,,,,,601.0,,,601.0,2962.0,1151.0,,,,,2702.0,,,,2702.0,3853.0,6815.0,0.0,981.0,,,-4200.0,7742.0,-838.0,3685.0,184.0,3869.0,10684.0,
09/30/2007,10907.0,227.0,227.0,0.0,2497.0,2497.0,,1385.0,315.0,144.0,811.0,115.0,1307.0,,,,,5416.0,2391.0,7755.0,-5364.0,357.0,,2743.0,2091.0,1462.0,629.0,652.0,5491.0,,2111.0,2111.0,,,,178.0,,,,,,743.0,,,743.0,3032.0,1181.0,,,,,2551.0,,,,2551.0,3732.0,6764.0,0.0,1018.0,,,-4267.0,7848.0,-596.0,4003.0,140.0,4143.0,10907.0,
12/31/2007,12629.0,526.0,526.0,0.0,2522.0,2522.0,,1532.0,323.0,131.0,937.0,141.0,2361.0,,,,,6941.0,2578.0,8694.0,-6116.0,370.0,,2740.0,2121.0,1507.0,614.0,619.0,5688.0,,2220.0,2220.0,,,,1819.0,,,,,,593.0,,,593.0,4632.0,1201.0,,,,,2484.0,,,,2484.0,3685.0,8317.0,0.0,1037.0,,,-4267.0,7963.0,-582.0,4151.0,161.0,4312.0,12629.0,
03/31/2008,15899.0,298.0,298.0,,3433.0,3433.0,,1977.0,479.0,159.0,1222.0,117.0,1241.0,,,,,6949.0,3253.0,8816.0,-5563.0,382.0,,5315.0,4573.0,2824.0,1749.0,742.0,8950.0,,3003.0,3003.0,,,,805.0,,,,,,684.0,,,684.0,4492.0,3639.0,,,,,3215.0,,,,3215.0,6854.0,11346.0,,1038.0,,,-4262.0,7976.0,-378.0,4374.0,179.0,4553.0,15899.0,
06/30/2008,16207.0,266.0,266.0,,3907.0,3907.0,,2124.0,493.0,170.0,1313.0,148.0,794.0,,,,,7091.0,3363.0,9736.0,-6373.0,395.0,,5358.0,4599.0,2874.0,1725.0,759.0,9116.0,,3316.0,3316.0,,,,816.0,,,,,,613.0,,,613.0,4745.0,3440.0,,,,,3204.0,,,,3204.0,6644.0,11389.0,,1045.0,,,-4262.0,8141.0,-300.0,4624.0,194.0,4818.0,16207.0,
09/30/2008,15046.0,516.0,516.0,,3453.0,3453.0,,1818.0,452.0,152.0,1101.0,113.0,792.0,,,,,6579.0,2833.0,8099.0,-5266.0,571.0,,5063.0,4272.0,2711.0,1561.0,791.0,8467.0,,3128.0,3128.0,,,,726.0,,,,,,615.0,,,615.0,4469.0,3221.0,,,,,2986.0,,,,2986.0,6207.0,10676.0,,1057.0,,,-4259.0,8172.0,-766.0,4204.0,166.0,4370.0,15046.0,
12/31/2008,14698.0,1021.0,1021.0,,2804.0,2804.0,,1702.0,412.0,134.0,1045.0,111.0,821.0,,,,,6348.0,2798.0,8043.0,-5245.0,509.0,,5043.0,4113.0,2641.0,1472.0,930.0,8350.0,,2816.0,2816.0,,,,903.0,,,,,,491.0,,,491.0,4210.0,3009.0,,,,,3990.0,,,,3990.0,6999.0,11209.0,,1064.0,,,-4259.0,8156.0,-1628.0,3333.0,156.0,3489.0,14698.0,
03/31/2009,13603.0,531.0,531.0,0.0,2713.0,2713.0,0.0,1677.0,391.0,137.0,1039.0,110.0,849.0,25.0,,,846.0,5770.0,2658.0,7900.0,-5242.0,493.0,493.0,4682.0,3932.0,2544.0,1388.0,725.0,7833.0,,2414.0,,,,2414.0,869.0,869.0,,,,,687.0,,132.0,565.0,3970.0,2986.0,2986.0,,,,3644.0,1075.0,1078.0,277.0,1082.0,6630.0,10600.0,0.0,998.0,484.0,514.0,-4249.0,7958.0,-1877.0,2830.0,173.0,3003.0,13603.0,
06/30/2009,14565.0,1052.0,1052.0,0.0,2847.0,2847.0,0.0,1672.0,398.0,139.0,1022.0,113.0,851.0,12.0,,,847.0,6422.0,2745.0,8156.0,-5411.0,499.0,499.0,4899.0,4142.0,2696.0,1446.0,745.0,8143.0,,2513.0,,,,2513.0,896.0,896.0,,,,,693.0,,235.0,605.0,4102.0,3306.0,3306.0,,,,3789.0,,2174.0,293.0,1087.0,7095.0,11197.0,0.0,1006.0,484.0,522.0,-4235.0,8017.0,-1613.0,3175.0,193.0,3368.0,14565.0,
09/30/2009,14569.0,898.0,898.0,0.0,2853.0,2853.0,0.0,1656.0,409.0,139.0,991.0,117.0,841.0,10.0,,,818.0,6248.0,2765.0,8279.0,-5514.0,506.0,506.0,5050.0,4254.0,2798.0,1456.0,786.0,8321.0,,2720.0,,,,2720.0,455.0,455.0,,,,,694.0,,338.0,635.0,3869.0,3082.0,3082.0,,,,3884.0,,2088.0,336.0,1122.0,6966.0,10835.0,0.0,1046.0,484.0,562.0,-4165.0,8088.0,-1431.0,3538.0,196.0,3734.0,14569.0,
12/31/2009,14240.0,1057.0,1057.0,0.0,2405.0,2405.0,0.0,1548.0,390.0,125.0,918.0,115.0,971.0,13.0,,,465.0,5981.0,2754.0,8313.0,-5559.0,499.0,499.0,5006.0,4200.0,2784.0,1416.0,793.0,8259.0,,2707.0,,,,2707.0,272.0,270.0,,,,2.0,598.0,0.0,321.0,553.0,3577.0,3074.0,3074.0,,,,3667.0,228.0,1954.0,328.0,836.0,6741.0,10318.0,0.0,1093.0,484.0,609.0,-4218.0,8139.0,-1261.0,3753.0,169.0,3922.0,14240.0,
03/31/2010,13756.0,689.0,689.0,0.0,2809.0,2809.0,0.0,1599.0,408.0,138.0,937.0,116.0,825.0,12.0,,,783.0,5922.0,2660.0,8209.0,-5549.0,503.0,503.0,4671.0,4030.0,2687.0,1343.0,629.0,7834.0,,2745.0,,,,2745.0,112.0,112.0,,,,,561.0,,195.0,514.0,3418.0,3051.0,3051.0,,,,3498.0,,1930.0,319.0,1054.0,6549.0,9967.0,0.0,1064.0,484.0,580.0,-4199.0,8080.0,-1353.0,3592.0,197.0,3789.0,13756.0,
06/30/2010,13366.0,784.0,784.0,0.0,2781.0,2781.0,0.0,1541.0,412.0,137.0,880.0,112.0,780.0,33.0,,,727.0,5886.0,2533.0,8014.0,-5481.0,525.0,525.0,4422.0,3764.0,2526.0,1238.0,625.0,7480.0,,2784.0,,,,2784.0,59.0,59.0,,,,,530.0,,69.0,487.0,3373.0,3017.0,3017.0,,,,3337.0,,1949.0,301.0,1018.0,6354.0,9727.0,0.0,1081.0,484.0,597.0,-4290.0,8262.0,-1603.0,3450.0,189.0,3639.0,13366.0,
09/30/2010,14120.0,930.0,930.0,0.0,2958.0,2958.0,0.0,1638.0,443.0,142.0,938.0,115.0,779.0,20.0,,,726.0,6305.0,2620.0,8314.0,-5694.0,536.0,536.0,4659.0,4022.0,2725.0,1297.0,617.0,7815.0,,2860.0,,,,2860.0,69.0,69.0,,,,,594.0,,240.0,550.0,3523.0,3066.0,3066.0,,,,3429.0,,1820.0,316.0,1053.0,6495.0,10018.0,0.0,1163.0,484.0,679.0,-4442.0,8433.0,-1280.0,3874.0,228.0,4102.0,14120.0,
12/31/2010,14975.0,1978.0,1341.0,637.0,2778.0,2778.0,0.0,1573.0,411.0,136.0,912.0,114.0,729.0,20.0,,,219.0,7058.0,2686.0,8415.0,-5729.0,550.0,550.0,4681.0,3987.0,2719.0,1268.0,674.0,7917.0,,3085.0,1626.0,56.0,0.0,1403.0,28.0,28.0,,,,,512.0,0.0,187.0,480.0,3625.0,4043.0,4043.0,,,,3474.0,189.0,1970.0,293.0,835.0,7517.0,11142.0,0.0,1209.0,484.0,725.0,-4708.0,8548.0,-1411.0,3638.0,195.0,3833.0,14975.0,
03/31/2011,15103.0,1383.0,796.0,587.0,3126.0,3126.0,0.0,1755.0,459.0,154.0,1028.0,114.0,820.0,16.0,,,738.0,7084.0,2696.0,8562.0,-5866.0,554.0,554.0,4769.0,4097.0,2814.0,1283.0,656.0,8019.0,,3135.0,,,,3135.0,96.0,96.0,,,,,518.0,,192.0,493.0,3749.0,3993.0,3993.0,,,,3366.0,,1834.0,302.0,1038.0,7359.0,11108.0,0.0,1226.0,484.0,742.0,-4960.0,8687.0,-1187.0,3766.0,229.0,3995.0,15103.0,
06/30/2011,15267.0,1245.0,982.0,263.0,3345.0,3345.0,,1821.0,488.0,164.0,1053.0,116.0,828.0,32.0,,,752.0,7239.0,2759.0,8706.0,-5947.0,405.0,405.0,4864.0,4151.0,2871.0,1280.0,681.0,8028.0,,3279.0,,,,3279.0,111.0,111.0,,,,,532.0,,241.0,518.0,3922.0,3613.0,3613.0,,,,3444.0,173.0,1869.0,305.0,856.0,7057.0,10979.0,,1243.0,484.0,759.0,-5044.0,8938.0,-1083.0,4054.0,234.0,4288.0,15267.0,
09/30/2011,14543.0,1338.0,1301.0,37.0,3088.0,3088.0,0.0,1737.0,458.0,157.0,1007.0,115.0,777.0,25.0,,,732.0,6940.0,2669.0,8537.0,-5868.0,400.0,400.0,4534.0,3872.0,2698.0,1174.0,637.0,7603.0,,3182.0,,,,3182.0,102.0,102.0,,,,,504.0,,146.0,404.0,3788.0,3590.0,3590.0,,,,3259.0,165.0,1828.0,286.0,834.0,6849.0,10637.0,0.0,1255.0,484.0,771.0,-5288.0,9159.0,-1464.0,3662.0,244.0,3906.0,14543.0,
12/31/2011,14382.0,1482.0,1457.0,25.0,2830.0,2830.0,0.0,1607.0,414.0,144.0,935.0,114.0,775.0,26.0,,,245.0,6694.0,2721.0,8614.0,-5893.0,387.0,387.0,4580.0,3785.0,2660.0,1125.0,769.0,7688.0,,3055.0,1612.0,51.0,0.0,1392.0,108.0,108.0,,,,,539.0,0.0,213.0,524.0,3702.0,3574.0,3574.0,,,,3660.0,167.0,2275.0,272.0,733.0,7234.0,10936.0,0.0,1267.0,484.0,783.0,-5506.0,9288.0,-1800.0,3249.0,197.0,3446.0,14382.0,
03/31/2012,14834.0,1034.0,978.0,56.0,3236.0,3236.0,0.0,1830.0,458.0,163.0,1092.0,117.0,844.0,24.0,,,764.0,6944.0,2785.0,8808.0,-6023.0,426.0,426.0,4679.0,3861.0,2729.0,1132.0,794.0,7890.0,,3228.0,,,,3228.0,669.0,669.0,,,,,661.0,,77.0,527.0,4558.0,2988.0,2988.0,,,,3772.0,284.0,2273.0,262.0,876.0,6760.0,11318.0,0.0,1281.0,484.0,797.0,-5548.0,9213.0,-1653.0,3293.0,223.0,3516.0,14834.0,
06/30/2012,14817.0,1247.0,1017.0,230.0,3310.0,3310.0,0.0,1775.0,454.0,157.0,1047.0,117.0,819.0,27.0,,,728.0,7151.0,2719.0,8725.0,-6006.0,419.0,419.0,4528.0,3711.0,2644.0,1067.0,790.0,7666.0,,3255.0,,,,3255.0,647.0,647.0,,,,,663.0,,39.0,546.0,4565.0,2964.0,2964.0,,,,3613.0,273.0,2213.0,241.0,847.0,6577.0,11142.0,0.0,1299.0,484.0,815.0,-5531.0,9486.0,-1793.0,3461.0,214.0,3675.0,14817.0,
09/30/2012,15606.0,2011.0,1392.0,619.0,3190.0,3190.0,0.0,1777.0,479.0,159.0,1023.0,116.0,799.0,0.0,,,695.0,7777.0,2759.0,8851.0,-6092.0,424.0,424.0,4646.0,3772.0,2706.0,1066.0,874.0,7829.0,,3199.0,,,,3199.0,636.0,636.0,,,,,655.0,,66.0,650.0,4490.0,3365.0,3365.0,,,,3619.0,256.0,2218.0,263.0,816.0,6984.0,11474.0,0.0,1335.0,484.0,851.0,-5504.0,9734.0,-1704.0,3861.0,271.0,4132.0,15606.0,
12/31/2012,15878.0,2393.0,1306.0,1087.0,2568.0,2568.0,0.0,1687.0,443.0,144.0,980.0,120.0,1067.0,0.0,,669.0,504.0,7715.0,2888.0,9030.0,-6142.0,422.0,422.0,4853.0,3846.0,2761.0,1085.0,338.0,8163.0,,3233.0,1620.0,667.0,0.0,946.0,642.0,36.0,3.0,3.0,,603.0,586.0,0.0,95.0,585.0,4461.0,3368.0,3339.0,29.0,29.0,,3727.0,231.0,2344.0,231.0,826.0,7095.0,11556.0,0.0,1354.0,484.0,870.0,-5496.0,9871.0,-1666.0,4063.0,259.0,4322.0,15878.0,
03/31/2013,15376.0,2380.0,2021.0,359.0,2824.0,2824.0,0.0,1698.0,443.0,153.0,1033.0,69.0,824.0,0.0,,,688.0,7726.0,2461.0,7042.0,-4581.0,418.0,418.0,4771.0,3727.0,2694.0,1033.0,1044.0,7650.0,,3045.0,,,,3045.0,48.0,48.0,,,,,634.0,,45.0,625.0,3727.0,3353.0,3353.0,,,,3255.0,201.0,1977.0,235.0,797.0,6608.0,10335.0,0.0,1372.0,484.0,888.0,-7173.0,12196.0,-1608.0,4787.0,254.0,5041.0,15376.0,
06/30/2013,16066.0,1781.0,1243.0,538.0,3223.0,3223.0,0.0,1862.0,466.0,157.0,1170.0,69.0,844.0,,,,686.0,7710.0,2637.0,7273.0,-4636.0,402.0,402.0,5317.0,4311.0,2937.0,1374.0,1006.0,8356.0,,3446.0,,,,3446.0,24.0,24.0,,,,,636.0,,61.0,634.0,4106.0,3355.0,3355.0,,,,3304.0,178.0,2030.0,224.0,811.0,6659.0,10765.0,0.0,1391.0,484.0,907.0,-7160.0,12450.0,-1639.0,5042.0,259.0,5301.0,16066.0,
09/30/2013,16638.0,2249.0,1562.0,687.0,3122.0,3122.0,0.0,1878.0,479.0,160.0,1169.0,70.0,871.0,1.0,,629.0,251.0,8120.0,2687.0,7449.0,-4762.0,404.0,404.0,5427.0,4394.0,3023.0,1371.0,403.0,8518.0,,3847.0,,,,3847.0,27.0,27.0,,,,,488.0,,107.0,483.0,4362.0,3368.0,3368.0,,,,3427.0,241.0,2029.0,216.0,834.0,6795.0,11157.0,0.0,1420.0,484.0,936.0,-7329.0,12589.0,-1469.0,5211.0,270.0,5481.0,16638.0,
12/31/2013,15863.0,1745.0,1116.0,629.0,2449.0,2449.0,0.0,1824.0,440.0,160.0,1156.0,68.0,1196.0,2.0,,491.0,539.0,7214.0,2876.0,7681.0,-4805.0,393.0,393.0,5380.0,4347.0,3008.0,1339.0,540.0,8649.0,,3478.0,1790.0,160.0,0.0,1528.0,34.0,28.0,2.0,2.0,,4.0,623.0,0.0,131.0,616.0,4135.0,3372.0,3344.0,28.0,28.0,,3158.0,204.0,1735.0,249.0,839.0,6530.0,10665.0,0.0,1437.0,484.0,953.0,-8002.0,12757.0,-1260.0,4932.0,266.0,5198.0,15863.0,
03/31/2014,17117.0,3039.0,2559.0,480.0,3016.0,3016.0,0.0,1929.0,454.0,168.0,1245.0,62.0,904.0,0.0,,270.0,254.0,8888.0,2724.0,7420.0,-4696.0,380.0,380.0,5125.0,4295.0,2969.0,1326.0,560.0,8229.0,,3817.0,,,,3817.0,19.0,19.0,,,,,730.0,,111.0,721.0,4566.0,3373.0,3373.0,,,,3089.0,168.0,1724.0,281.0,805.0,6462.0,11028.0,0.0,1473.0,484.0,989.0,-8185.0,13934.0,-1230.0,5992.0,97.0,6089.0,17117.0,
06/30/2014,17300.0,2913.0,1986.0,927.0,3184.0,3184.0,0.0,1964.0,465.0,171.0,1264.0,64.0,974.0,,,230.0,304.0,9035.0,2777.0,7522.0,-4745.0,381.0,381.0,5107.0,4282.0,2978.0,1304.0,595.0,8265.0,,3795.0,,,,3795.0,425.0,425.0,,,,,742.0,,104.0,705.0,4962.0,2958.0,2958.0,,,,3059.0,372.0,1747.0,271.0,565.0,6017.0,10979.0,0.0,1467.0,484.0,983.0,-8281.0,14227.0,-1181.0,6232.0,89.0,6321.0,17300.0,
09/30/2014,17087.0,3038.0,2468.0,570.0,2968.0,2968.0,0.0,1905.0,464.0,165.0,1214.0,62.0,987.0,9.0,,252.0,309.0,8898.0,2720.0,7183.0,-4463.0,449.0,449.0,5020.0,4172.0,2898.0,1274.0,587.0,8189.0,,3899.0,,,,3899.0,394.0,394.0,,,,,603.0,,66.0,579.0,4896.0,2954.0,2954.0,,,,3032.0,163.0,1725.0,241.0,837.0,5986.0,10882.0,0.0,1485.0,484.0,1001.0,-8423.0,14506.0,-1447.0,6121.0,84.0,6205.0,17087.0,
12/31/2014,17535.0,1183.0,686.0,497.0,2366.0,2366.0,0.0,1825.0,439.0,157.0,1169.0,60.0,1069.0,16.0,,875.0,749.0,6443.0,3092.0,7470.0,-4378.0,443.0,443.0,7557.0,6212.0,3801.0,2411.0,454.0,11092.0,,3547.0,1919.0,61.0,,1567.0,481.0,112.0,3.0,3.0,,366.0,847.0,0.0,32.0,824.0,4875.0,3533.0,3503.0,30.0,30.0,,3862.0,0.0,2127.0,666.0,1037.0,7395.0,12270.0,0.0,1512.0,484.0,1028.0,-8714.0,14498.0,-2116.0,5180.0,85.0,5265.0,17535.0,
03/31/2015,17368.0,1170.0,735.0,435.0,2961.0,2961.0,0.0,1881.0,444.0,156.0,1225.0,56.0,1072.0,98.0,,450.0,335.0,7084.0,2965.0,7240.0,-4275.0,449.0,449.0,6870.0,5818.0,3541.0,2277.0,504.0,10284.0,,3462.0,,,,3462.0,621.0,621.0,,,,,690.0,,1.0,687.0,4773.0,4023.0,4023.0,,,,3414.0,154.0,1781.0,624.0,854.0,7437.0,12210.0,0.0,1557.0,484.0,1073.0,-8898.0,14728.0,-2309.0,5078.0,80.0,5158.0,17368.0,
06/30/2015,17596.0,1182.0,707.0,475.0,3286.0,3286.0,0.0,1861.0,445.0,160.0,1202.0,54.0,1045.0,45.0,,404.0,347.0,7374.0,2917.0,7319.0,-4402.0,459.0,459.0,6846.0,5881.0,3621.0,2260.0,516.0,10222.0,,3712.0,,,,3712.0,293.0,293.0,,,,,820.0,,,813.0,4825.0,4222.0,4222.0,,,,3293.0,145.0,1798.0,501.0,849.0,7515.0,12340.0,0.0,1581.0,969.0,612.0,-9044.0,14966.0,-2332.0,5171.0,85.0,5256.0,17596.0,
09/30/2015,17574.0,1414.0,1015.0,399.0,3062.0,3062.0,0.0,1841.0,441.0,165.0,1182.0,53.0,975.0,29.0,,374.0,352.0,7292.0,2919.0,7352.0,-4433.0,453.0,453.0,6910.0,5867.0,3643.0,2224.0,640.0,10282.0,,3687.0,,,,3687.0,302.0,302.0,,,,,781.0,,,779.0,4770.0,4250.0,4250.0,,,,3358.0,328.0,1778.0,506.0,746.0,7608.0,12378.0,0.0,1593.0,969.0,624.0,-9192.0,15302.0,-2592.0,5111.0,85.0,5196.0,17574.0,
12/31/2015,17076.0,1455.0,1311.0,144.0,2343.0,2343.0,0.0,1659.0,402.0,161.0,1055.0,41.0,1255.0,41.0,285.0,711.0,700.0,6712.0,2822.0,6749.0,-3927.0,367.0,367.0,7175.0,5847.0,3669.0,2178.0,576.0,10364.0,,3470.0,1886.0,106.0,,1478.0,281.0,24.0,3.0,3.0,,254.0,944.0,0.0,,940.0,4695.0,4026.0,3999.0,27.0,27.0,,3286.0,182.0,1710.0,460.0,934.0,7312.0,12007.0,0.0,1604.0,969.0,635.0,-9440.0,15521.0,-2702.0,4983.0,86.0,5069.0,17076.0,
03/31/2016,17315.0,1030.0,909.0,121.0,3106.0,3106.0,0.0,1863.0,446.0,179.0,1187.0,51.0,719.0,36.0,,648.0,422.0,6718.0,3038.0,7595.0,-4557.0,370.0,370.0,7189.0,5913.0,3743.0,2170.0,592.0,10597.0,,3673.0,,,,3673.0,38.0,38.0,0.0,0.0,,,845.0,,,836.0,4556.0,4226.0,4196.0,30.0,30.0,,3285.0,284.0,1699.0,479.0,823.0,7511.0,12067.0,0.0,1617.0,969.0,648.0,-9583.0,15770.0,-2643.0,5161.0,87.0,5248.0,17315.0,
06/30/2016,17248.0,1669.0,1605.0,64.0,3108.0,3108.0,0.0,1803.0,430.0,179.0,1148.0,46.0,527.0,53.0,148.0,540.0,355.0,7107.0,2950.0,7304.0,-4354.0,322.0,322.0,6869.0,5675.0,3602.0,2073.0,601.0,10141.0,,3634.0,,,,3634.0,686.0,686.0,,,,,55.0,,,48.0,4375.0,4426.0,4397.0,29.0,29.0,,3014.0,161.0,1631.0,546.0,676.0,7440.0,11815.0,0.0,1637.0,969.0,668.0,-9576.0,16034.0,-2749.0,5346.0,87.0,5433.0,17248.0,
09/30/2016,16490.0,975.0,929.0,46.0,2962.0,2962.0,0.0,1676.0,398.0,178.0,1063.0,37.0,804.0,,443.0,516.0,319.0,6417.0,2863.0,6784.0,-3921.0,328.0,328.0,6882.0,5774.0,3701.0,2073.0,592.0,10073.0,,3624.0,,,,3624.0,652.0,652.0,,,,,184.0,,,179.0,4460.0,3752.0,3735.0,17.0,17.0,,3157.0,152.0,1812.0,521.0,672.0,6909.0,11369.0,0.0,1652.0,969.0,683.0,-9824.0,15744.0,-2541.0,5031.0,90.0,5121.0,16490.0,
12/31/2016,15771.0,1863.0,1820.0,43.0,2288.0,2288.0,0.0,1514.0,370.0,165.0,947.0,32.0,909.0,65.0,223.0,186.0,664.0,6574.0,2608.0,6005.0,-3397.0,179.0,179.0,6410.0,5555.0,3572.0,1983.0,604.0,9197.0,,3536.0,1907.0,124.0,,1505.0,629.0,95.0,4.0,4.0,,530.0,88.0,0.0,0.0,79.0,4253.0,3787.0,3773.0,14.0,14.0,,2816.0,361.0,1464.0,417.0,574.0,6603.0,10856.0,0.0,1676.0,969.0,707.0,-10472.0,15980.0,-2356.0,4828.0,87.0,4915.0,15771.0,
03/31/2017,16154.0,1389.0,1349.0,40.0,3057.0,3057.0,0.0,1727.0,414.0,173.0,1103.0,37.0,473.0,,34.0,139.0,342.0,6646.0,2806.0,6775.0,-3969.0,175.0,175.0,6527.0,5800.0,3720.0,2080.0,588.0,9508.0,,3649.0,,,,3649.0,604.0,604.0,,,,,20.0,,,8.0,4273.0,3817.0,3799.0,18.0,18.0,,2778.0,279.0,1439.0,400.0,660.0,6595.0,10868.0,0.0,1680.0,969.0,711.0,-10626.0,16214.0,-2076.0,5192.0,94.0,5286.0,16154.0,
06/30/2017,16977.0,1617.0,1569.0,48.0,3191.0,3191.0,0.0,1766.0,433.0,186.0,1114.0,33.0,571.0,,177.0,321.0,350.0,7145.0,2710.0,6339.0,-3629.0,256.0,256.0,6866.0,5963.0,3845.0,2118.0,582.0,9832.0,,3736.0,,,,3736.0,619.0,619.0,,,,,86.0,,,68.0,4441.0,3998.0,3982.0,16.0,16.0,,2803.0,187.0,1503.0,390.0,723.0,6801.0,11242.0,0.0,1692.0,969.0,723.0,-10616.0,16613.0,-2059.0,5630.0,105.0,5735.0,16977.0,
09/30/2017,17615.0,2328.0,2287.0,41.0,3155.0,3155.0,0.0,1805.0,452.0,184.0,1136.0,33.0,350.0,,0.0,421.0,340.0,7638.0,2730.0,6467.0,-3737.0,261.0,261.0,6986.0,5980.0,3881.0,2099.0,585.0,9977.0,,3978.0,,,,3978.0,616.0,616.0,,,,,24.0,,,9.0,4618.0,4089.0,4073.0,16.0,16.0,,2898.0,189.0,1525.0,445.0,739.0,6987.0,11605.0,0.0,1714.0,969.0,745.0,-10855.0,17106.0,-2063.0,5902.0,108.0,6010.0,17615.0,
12/31/2017,16538.0,1491.0,1436.0,55.0,2559.0,2559.0,0.0,1730.0,437.0,177.0,1083.0,33.0,697.0,0.0,0.0,305.0,689.0,6477.0,2824.0,6594.0,-3770.0,268.0,268.0,6969.0,5987.0,3942.0,2045.0,677.0,10061.0,,3853.0,2321.0,100.0,,1432.0,12.0,4.0,4.0,4.0,,4.0,29.0,0.0,0.0,6.0,3894.0,4134.0,4123.0,11.0,11.0,,2837.0,185.0,1428.0,442.0,782.0,6971.0,10865.0,0.0,1725.0,969.0,756.0,-11251.0,17141.0,-2057.0,5558.0,115.0,5673.0,16538.0,
03/31/2018,17544.0,1404.0,1346.0,58.0,3343.0,3343.0,0.0,1963.0,493.0,200.0,1235.0,35.0,400.0,5.0,,351.0,384.0,7110.0,2862.0,6749.0,-3887.0,270.0,270.0,7302.0,6232.0,4100.0,2132.0,714.0,10434.0,,3893.0,,,,3893.0,19.0,19.0,,,,,118.0,,11.0,25.0,4030.0,5199.0,5199.0,,,,2848.0,193.0,1392.0,471.0,781.0,8047.0,12077.0,0.0,1730.0,969.0,761.0,-11843.0,17464.0,-2005.0,5346.0,121.0,5467.0,17544.0,
06/30/2018,16794.0,1083.0,1020.0,63.0,3438.0,3438.0,0.0,1956.0,500.0,204.0,1218.0,34.0,402.0,99.0,0.0,290.0,332.0,6879.0,2738.0,6586.0,-3848.0,258.0,258.0,6919.0,5906.0,3920.0,1986.0,624.0,9915.0,,3954.0,,,,3954.0,22.0,22.0,,,,,71.0,,2.0,59.0,4047.0,5048.0,5034.0,14.0,14.0,,2716.0,190.0,1362.0,425.0,737.0,7764.0,11811.0,0.0,1738.0,969.0,769.0,-12304.0,17725.0,-2275.0,4884.0,99.0,4983.0,16794.0,
09/30/2018,16718.0,1160.0,1103.0,57.0,3217.0,3217.0,0.0,1962.0,502.0,205.0,1221.0,34.0,402.0,22.0,0.0,306.0,335.0,6741.0,2738.0,6618.0,-3880.0,266.0,266.0,6973.0,5943.0,3939.0,2004.0,702.0,9977.0,,3873.0,,,,3873.0,15.0,15.0,,,,,45.0,,9.0,42.0,3933.0,5023.0,5010.0,13.0,13.0,,2684.0,316.0,1311.0,460.0,588.0,7707.0,11640.0,0.0,1741.0,969.0,772.0,-12551.0,17987.0,-2197.0,4980.0,98.0,5078.0,16718.0,
12/31/2018,16015.0,963.0,902.0,61.0,2505.0,2505.0,0.0,1783.0,452.0,193.0,1105.0,33.0,710.0,43.0,,229.0,665.0,5961.0,2805.0,6633.0,-3828.0,251.0,251.0,6998.0,6042.0,4070.0,1972.0,684.0,10054.0,,3623.0,2177.0,80.0,,1366.0,651.0,1.0,3.0,3.0,,647.0,99.0,0.0,0.0,89.0,4373.0,4365.0,4356.0,9.0,9.0,,2545.0,186.0,1274.0,429.0,656.0,6910.0,11283.0,0.0,1757.0,969.0,788.0,-12958.0,18131.0,-2300.0,4630.0,102.0,4732.0,16015.0,
03/31/2019,17371.0,839.0,784.0,55.0,3197.0,3197.0,0.0,1965.0,486.0,211.0,1234.0,34.0,408.0,66.0,,242.0,378.0,6409.0,3592.0,7489.0,-3897.0,261.0,261.0,7109.0,6123.0,4103.0,2020.0,678.0,10962.0,,3684.0,,,,3684.0,821.0,650.0,171.0,3.0,168.0,,83.0,,,51.0,4588.0,5192.0,4617.0,575.0,9.0,566.0,2581.0,157.0,1269.0,447.0,708.0,7773.0,12361.0,0.0,1868.0,969.0,899.0,-13070.0,18330.0,-2224.0,4904.0,106.0,5010.0,17371.0,
06/30/2019,17955.0,1016.0,963.0,53.0,3332.0,3332.0,0.0,1945.0,482.0,213.0,1216.0,34.0,414.0,76.0,,199.0,313.0,6707.0,3660.0,7623.0,-3963.0,251.0,251.0,7337.0,6393.0,4312.0,2081.0,669.0,11248.0,,3746.0,,,,3746.0,821.0,650.0,171.0,4.0,167.0,,139.0,,,129.0,4706.0,5417.0,4836.0,581.0,9.0,572.0,2645.0,183.0,1258.0,382.0,822.0,8062.0,12768.0,0.0,1882.0,969.0,913.0,-13061.0,18488.0,-2230.0,5079.0,108.0,5187.0,17955.0,
09/30/2019,18064.0,1490.0,1432.0,58.0,3028.0,3028.0,0.0,1860.0,460.0,207.0,1159.0,34.0,439.0,117.0,,194.0,389.0,6817.0,3604.0,7568.0,-3964.0,254.0,254.0,7389.0,6418.0,4335.0,2083.0,660.0,11247.0,,3751.0,,,,3751.0,801.0,636.0,165.0,3.0,162.0,,26.0,,1.0,21.0,4578.0,5473.0,4877.0,596.0,8.0,588.0,2658.0,178.0,1243.0,455.0,781.0,8131.0,12709.0,0.0,1894.0,969.0,925.0,-13054.0,18735.0,-2328.0,5247.0,108.0,5355.0,18064.0,
12/31/2019,17708.0,1273.0,1216.0,57.0,2479.0,2479.0,0.0,1710.0,431.0,197.0,1047.0,35.0,708.0,87.0,,220.0,609.0,6170.0,3765.0,7847.0,-4082.0,258.0,258.0,7515.0,6601.0,4470.0,2131.0,607.0,11538.0,,3496.0,2098.0,85.0,,1313.0,683.0,7.0,173.0,3.0,170.0,503.0,196.0,0.0,4.0,175.0,4375.0,5161.0,4531.0,630.0,8.0,622.0,2769.0,242.0,1406.0,452.0,665.0,7930.0,12305.0,0.0,1919.0,969.0,950.0,-13191.0,18906.0,-2350.0,5284.0,119.0,5403.0,17708.0,
03/31/2020,18064.0,1936.0,1886.0,50.0,2804.0,2804.0,0.0,1859.0,482.0,204.0,1138.0,35.0,467.0,166.0,,183.0,431.0,7066.0,3647.0,7712.0,-4065.0,245.0,245.0,7106.0,6161.0,4243.0,1918.0,596.0,10998.0,,3367.0,3367.0,,,,1622.0,1454.0,168.0,2.0,166.0,,206.0,,,159.0,5195.0,5378.0,4744.0,634.0,7.0,627.0,2654.0,228.0,1393.0,399.0,634.0,8032.0,13227.0,0.0,1923.0,969.0,954.0,-13187.0,19029.0,-3042.0,4723.0,114.0,4837.0,18064.0,
06/30/2020,18170.0,2297.0,2252.0,45.0,2673.0,2673.0,0.0,1706.0,466.0,192.0,1012.0,36.0,401.0,151.0,,188.0,298.0,7077.0,3691.0,7867.0,-4176.0,251.0,251.0,7151.0,6223.0,4307.0,1916.0,589.0,11093.0,,3055.0,3055.0,,,,1859.0,1688.0,171.0,,171.0,,320.0,,,312.0,5234.0,5282.0,4613.0,669.0,,669.0,2716.0,206.0,1383.0,397.0,730.0,7998.0,13232.0,0.0,1931.0,969.0,962.0,-13184.0,19010.0,-2925.0,4832.0,106.0,4938.0,18170.0,
